MTS793|MPT|ENU|1|0|.|/|:|1|0|0|A

Data Acquisition                                            Time:     10.015625 s         4/14/2017 1:23:18 PM
Time      Ch 1 Force Ch 1 Displacement
s         lbf       in
0.024414063 136.75291 -0.011307448
0.034179688 137.16605 -0.011333376
0.043945313 142.61008 -0.011285394
0.053710938 148.69061 -0.011254251
0.063476563 149.90886 -0.011253953
0.073242188 149.26933 -0.011262149
0.083007813 154.45038 -0.01120612
0.092773438 163.93033 -0.011125356
0.10253906 173.16289 -0.011027008
0.11230469 181.77144 -0.010951608
0.12207031 187.16499 -0.010877252
0.13183594 190.28333 -0.010809749
0.14160156 191.72646 -0.010787547
0.15136719 191.02022 -0.010872036
0.16113281 191.61116 -0.010826886
0.17089844 192.47694 -0.010831803
0.18066406 192.38033 -0.010809898
0.19042969 191.41693 -0.010835677
0.20019531 191.69788 -0.010783076
0.20996094 192.64035 -0.010824502
0.21972656 195.9839 -0.010790229
0.22949219 196.85246 -0.010766238
0.23925781 199.73312 -0.010776371
0.24902344 208.97403 -0.010634363
0.25878906 219.32307 -0.010532737
0.26855469 227.07011 -0.010432005
0.27832031 233.75217 -0.01030758
0.28808594 241.6011 -0.010196716
0.29785156 247.21585 -0.010160059
0.30761719 252.21834 -0.01008004
0.31738281 254.22127 -0.010102689
0.32714844 254.51289 -0.010107458
0.33691406 253.87234 -0.010054857
0.34667969 260.68408 -0.010011643
0.35644531 266.67987 -0.0099614263
0.36621094 272.20374 -0.0098857284
0.37597656 279.97971 -0.0097900629
0.38574219 288.59598 -0.0096856058
0.39550781 295.79944 -0.009573698
0.40527344 304.10571 -0.0094777346
0.41503906 306.94492 -0.0095121562
0.42480469 307.58408 -0.0094810128
0.43457031 312.14169 -0.0094242394
0.44433594 312.86053 -0.0093759596
0.45410156 319.81888 -0.0093315542
0.46386719 328.11844 -0.0092145801
0.47363281 331.67206 -0.0091937184
0.48339844 336.96756 -0.0091007352
0.49316406 339.74106 -0.0090572238
0.50292969 345.83621 -0.0089818239
0.51269531 357.02866 -0.0089098513
0.52246094 366.27686 -0.0087960064
0.53222656 372.82755 -0.008726269
0.54199219 380.15982 -0.0085946918
0.55175781 385.54236 -0.0085636973
0.56152344 391.66528 -0.0084671378
0.57128906 398.80911 -0.0084294379
0.58105469 406.44739 -0.0083877146
0.59082031 414.5686 -0.0082603097
0.60058594 424.00583 -0.0081735849
0.61035156 434.95795 -0.0080545247
0.62011719 442.71426 -0.0079499185
0.62988281 444.43246 -0.0079584122
0.63964844 445.08008 -0.0079232454
0.64941406 450.71619 -0.0078758597
0.65917969 450.31693 -0.0079168379
0.66894531 450.12518 -0.0079128146
0.67871094 450.1395 -0.0078468025
0.68847656 450.18411 -0.0078681111
0.69824219 449.31467 -0.0078684092
0.70800781 450.21985 -0.0078831613
0.71777344 452.04489 -0.007828325
0.72753906 458.51602 -0.007776618
0.73730469 465.92313 -0.0077688694
0.74707031 467.88028 -0.0077058375
0.75683594 470.23889 -0.0076638162
0.76660156 482.06494 -0.0076453388
0.77636719 490.03693 -0.0074999034
0.78613281 495.8399 -0.0074928999
0.79589844 507.86646 -0.0073839724
0.80566406 518.55591 -0.007275641
0.81542969 527.88312 -0.0071848929
0.82519531 540.28943 -0.0070814788
0.83496094 548.17963 -0.0070138276
0.84472656 561.65747 -0.0069373846
0.85449219 573.01703 -0.0068593025
0.86425781 581.505  -0.0067314506
0.87402344 583.53632 -0.0066797435
0.88378906 584.42529 -0.0067088008
0.89355469 593.13153 -0.0066381693
0.90332031 599.21155 -0.0065501034
0.91308594 601.49524 -0.0065477192
0.92285156 600.99188 -0.0065164268
0.93261719 604.55267 -0.0065369904
0.94238281 606.47552 -0.0065335631
0.95214844 613.9267 -0.0064322352
0.96191406 621.15894 -0.0063918531
0.97167969 628.23346 -0.0063055754
0.98144531 636.83807 -0.006224364
0.99121094 642.70856 -0.0061418116
1.0009766 653.40991 -0.0060933828
1.0107422 673.05444 -0.0059239566
1.0205078 680.07599 -0.0058472157
1.0302734 682.69092 -0.005851537
1.0400391 683.03705 -0.0058224797
1.0498047 684.40662 -0.0057891011
1.0595703 684.21741 -0.0057815015
1.0693359 683.81842 -0.0058059394
1.0791016 684.30048 -0.0057905912
1.0888672 696.38599 -0.0057055056
1.0986328 704.6507  -0.0056141615
1.1083984 708.2619  -0.0056308508
1.1181641 718.46552 -0.0055146217
1.1279297 726.40106 -0.0054337084
1.1376953 738.53436 -0.0053311884
1.1474609 750.62738 -0.0052028894
1.1572266 765.97852 -0.0050850213
1.1669922 776.33441 -0.0050216913
1.1767578 786.43085 -0.0048953295
1.1865234 792.47925 -0.0048664212
1.1962891 801.75665 -0.0047697127
1.2060547 814.18158 -0.0046895444
1.2158203 821.73688 -0.0045932829
1.2255859 828.88318 -0.0045396388
1.2353516 831.52502 -0.0044471025
1.2451172 832.9574  -0.004427433
1.2548828 846.0564  -0.0043435395
1.2646484 856.0379  -0.0042420626
1.2744141 862.72693 -0.0041984022
1.2841797 869.14557 -0.0041697919
1.2939453 872.10175 -0.0040949881
1.3037109 877.83722 -0.0040966272
1.3134766 885.19373 -0.0039817393
1.3232422 894.76099 -0.003914237
1.3330078 899.92926 -0.0038599968
1.3427734 902.31256 -0.003824383
1.3525391 906.22614 -0.0037436187
1.3623047 909.88959 -0.003760308
1.3720703 921.72058 -0.003669709
1.3818359 929.8811  -0.0036075711
1.3916016 928.28632 -0.0035855174
1.4013672 926.92773 -0.0035628676
1.4111328 927.89905 -0.003541559
1.4208984 930.98053 -0.0035786629
1.4306641 931.32623 -0.0035265088
1.4404297 930.93195 -0.0035853684
1.4501953 929.51007 -0.0035484135
1.4599609 928.70343 -0.0035880506
1.4697266 930.49237 -0.0035314262
1.4794922 936.46936 -0.0034871697
1.4892578 940.2475  -0.0034999847
1.4990234 942.68829 -0.003477931
1.5087891 946.13123 -0.0033971667
1.5185547 959.0451  -0.0033506751
1.5283203 962.02203 -0.003311336
1.5380859 965.50824 -0.003272295
1.5478516 972.15411 -0.0032484531
1.5576172 974.8465  -0.003182888
1.5673828 979.87537 -0.0031504035
1.5771484 991.52856 -0.0030605495
1.5869141 1007.6065 -0.0029170513
1.5966797 1020.7025 -0.0028516352
1.6064453 1029.3986 -0.0027726591
1.6162109 1039.6395 -0.0026574731
1.6259766 1053.1683 -0.0025014579
1.6357422 1068.3572 -0.0023953617
1.6455078 1079.0815 -0.0023148954
1.6552734 1091.5465 -0.002168566
1.6650391 1103.6583 -0.0020711124
1.6748047 1109.7241 -0.0019882619
1.6845703 1116.0226 -0.0019198656
1.6943359 1126.6498 -0.0018399954
1.7041016 1132.5576 -0.0017917156
1.7138672 1133.0338 -0.0017529726
1.7236328 1135.3705 -0.0017087162
1.7333984 1150.1172 -0.0016340613
1.7431641 1163.2708 -0.0014933944
1.7529297 1179.6747 -0.0014227629
1.7626953 1189.98   -0.0012679398
1.7724609 1198.6417 -0.0011627376
1.7822266 1206.712  -0.0010667741
1.7919922 1219.1653 -0.00097587705
1.8017578 1227.7378 -0.00091895461
1.8115234 1233.0991 -0.00083789229
1.8212891 1228.6519 -0.00085502863
1.8310547 1224.319  -0.00083073974
1.8408203 1221.1938 -0.00090166926
1.8505859 1219.5588 -0.00088065863
1.8603516 1218.4978 -0.00080913305
1.8701172 1216.9688 -0.00086501241
1.8798828 1215.809  -0.00082239509
1.8896484 1223.0549 -0.00077322125
1.8994141 1238.7906 -0.00068962574
1.9091797 1250.9917 -0.00061735511
1.9189453 1249.8865 -0.00060945749
1.9287109 1248.7202 -0.00055938959
1.9384766 1256.4395 -0.00049769878
1.9482422 1262.7798 -0.00043973327
1.9580078 1265.6609 -0.00041007996
1.9677734 1264.2333 -0.00039249659
1.9775391 1275.7567 -0.00024884939
1.9873047 1283.4714 -0.00019818544
1.9970703 1291.7035 -9.3579292e-05
2.0068359 1294.3562 -5.5134296e-05
2.0166016 1292.5583 -1.5199184e-05
2.0263672 1297.0887 2.8461218e-05
2.0361328 1305.7642 0.00013753772
2.0458984 1314.5076 0.00025525689
2.0556641 1318.4545 0.0003489852
2.0654297 1323.2366 0.00036969781
2.0751953 1332.9568 0.00052541494
2.0849609 1333.1638 0.00058323145
2.0947266 1336.6188 0.00069200993
2.1044922 1342.0555 0.00069528818
2.1142578 1345.3348 0.00077590346
2.1240234 1347.3582 0.00085830688
2.1337891 1355.386  0.0009444356
2.1435547 1359.5781 0.00099495053
2.1533203 1364.1851 0.0010888278
2.1630859 1370.5238 0.0011764467
2.1728516 1371.0344 0.0012125075
2.1826172 1375.1643 0.0012718141
2.1923828 1376.6256 0.0013610721
2.2021484 1373.9138 0.0013415515
2.2119141 1381.0759 0.0014305115
2.2216797 1384.7141 0.0014740229
2.2314453 1387.0706 0.0015643239
2.2412109 1388.6385 0.0015416741
2.2509766 1397.1433 0.0016857684
2.2607422 1400.8301 0.001706481
2.2705078 1403.1437 0.0017659366
2.2802734 1405.7277 0.0018246472
2.2900391 1407.1488 0.0018873811
2.2998047 1411.9017 0.0019200146
2.3095703 1423.1172 0.0020000339
2.3193359 1429.2531 0.0021219254
2.3291016 1423.7299 0.0021566451
2.3388672 1419.1335 0.0021606684
2.3486328 1415.3882 0.0021500885
2.3583984 1411.8667 0.0022056699
2.3681641 1408.6959 0.00218153
2.3779297 1407.002  0.0021792948
2.3876953 1410.6425 0.0021716952
2.3974609 1426.587  0.0023192167
2.4072266 1435.8781 0.0023804605
2.4169922 1443.2202 0.0024577975
2.4267578 1439.9845 0.0024788082
2.4365234 1439.4816 0.0025075674
2.4462891 1437.5638 0.0025336444
2.4560547 1437.9401 0.0025266409
2.4658203 1440.7723 0.0025597215
2.4755859 1444.2223 0.0025674701
2.4853516 1450.9823 0.0026845932
2.4951172 1452.0615 0.0026996434
2.5048828 1459.0321 0.002772212
2.5146484 1467.234  0.0028671324
2.5244141 1469.175  0.0029321015
2.5341797 1473.6396 0.0030212104
2.5439453 1476.1808 0.0030945241
2.5537109 1479.6727 0.0031448901
2.5634766 1479.9131 0.0031608343
2.5732422 1487.1941 0.0032861531
2.5830078 1495.3511 0.0033943355
2.5927734 1498.4014 0.0034512579
2.6025391 1494.2599 0.0034749508
2.6123047 1489.8988 0.0034894049
2.6220703 1489.2719 0.0035497546
2.6318359 1494.9272 0.0035867095
2.6416016 1501.6755 0.0036641955
2.6513672 1510.4    0.0037510693
2.6611328 1518.0656 0.0038482249
2.6708984 1527.3311 0.00397861
2.6806641 1526.8888 0.004041642
2.6904297 1526.9789 0.0040525198
2.7001953 1528.0376 0.004132688
2.7099609 1525.9312 0.0041697919
2.7197266 1523.8208 0.0042194128
2.7294922 1531.9341 0.0043059886
2.7392578 1539.8336 0.0043208897
2.7490234 1546.1653 0.0044339895
2.7587891 1551.7854 0.0044813752
2.7685547 1557.1462 0.0045919418
2.7783203 1554.7781 0.0046248734
2.7880859 1552.4304 0.004696846
2.7978516 1561.1085 0.004747957
2.8076172 1570.1257 0.0048853457
2.8173828 1568.9243 0.004928112
2.8271484 1568.6238 0.0049906969
2.8369141 1576.7134 0.0050337613
2.8466797 1580.8286 0.0050929189
2.8564453 1583.7086 0.0052022934
2.8662109 1585.1283 0.0052382052
2.8759766 1584.4127 0.0052636862
2.8857422 1591.1664 0.0053560734
2.8955078 1595.3585 0.0054690242
2.9052734 1599.6244 0.0055103004
2.9150391 1599.2596 0.0055009127
2.9248047 1607.4979 0.0056274235
2.9345703 1608.0845 0.0057069957
2.9443359 1602.3483 0.0057542324
2.9541016 1596.3813 0.0056834519
2.9638672 1597.4912 0.0057181716
2.9736328 1604.1814 0.0057806075
2.9833984 1602.979  0.0058194995
2.9931641 1604.1876 0.0058631599
3.0029297 1602.9655 0.0058275461
3.0126953 1609.5833 0.0059165061
3.0224609 1613.0947 0.0059597194
3.0322266 1621.9319 0.0059972703
3.0419922 1637.6191 0.0061695278
3.0517578 1648.0034 0.0063091516
3.0615234 1653.6056 0.0064060092
3.0712891 1656.5939 0.0064913929
3.0810547 1657.8402 0.0066173077
3.0908203 1652.8007 0.0066071749
3.1005859 1646.9388 0.0066199899
3.1103516 1644.4434 0.0066125393
3.1201172 1646.9009 0.0066575408
3.1298828 1651.877  0.0067535043
3.1396484 1666.2113 0.0068412721
3.1494141 1671.3801 0.0069062412
3.1591797 1672.9589 0.0069820881
3.1689453 1674.5518 0.0070047379
3.1787109 1678.2589 0.0071053207
3.1884766 1687.4036 0.0071816146
3.1982422 1688.2771 0.0072401762
3.2080078 1683.3923 0.0072611868
3.2177734 1685.9629 0.0073483586
3.2275391 1689.0416 0.007366538
3.2373047 1695.6215 0.0074592233
3.2470703 1705.5632 0.0075432658
3.2568359 1706.6521 0.0075416267
3.2666016 1702.131  0.0076368451
3.2763672 1699.6892 0.0076583028
3.2861328 1707.2384 0.0077073276
3.2958984 1718.8253 0.0078207254
3.3056641 1726.4152 0.0079475343
3.3154297 1724.1248 0.0079482794
3.3251953 1718.6702 0.0079856813
3.3349609 1720.6563 0.0080564618
3.3447266 1730.1012 0.0081378222
3.3544922 1733.8307 0.0081771612
3.3642578 1728.0142 0.0082355738
3.3740234 1728.4886 0.0082844496
3.3837891 1730.9847 0.0082632899
3.3935547 1729.1357 0.0082737207
3.4033203 1729.8287 0.0083011389
3.4130859 1730.396  0.0083470345
3.4228516 1737.0594 0.00841856
3.4326172 1742.6464 0.0084292889
3.4423828 1747.3893 0.0084926188
3.4521484 1751.2593 0.0085550547
3.4619141 1756.884  0.0086335838
3.4716797 1761.7307 0.0086764991
3.4814453 1761.4232 0.008726418
3.4912109 1765.1636 0.0087767839
3.5009766 1774.0552 0.0088904798
3.5107422 1779.9966 0.0089618564
3.5205078 1775.5776 0.0090359151
3.5302734 1778.353  0.0090920925
3.5400391 1779.4335 0.009098649
3.5498047 1774.891  0.0090655684
3.5595703 1770.7963 0.0091408193
3.5693359 1768.1791 0.0091139972
3.5791016 1766.3945 0.0091332197
3.5888672 1771.6458 0.0091816485
3.5986328 1777.4524 0.0092345476
3.6083984 1787.7668 0.0093337893
3.6181641 1796.9998 0.0094464421
3.6279297 1803.1877 0.0094826519
3.6376953 1799.2197 0.0095020235
3.6474609 1798.0383 0.009611994
3.6572266 1795.8192 0.0095236301
3.6669922 1808.844  0.0096429884
3.6767578 1818.0897 0.0097377598
3.6865234 1821.4915 0.0097993016
3.6962891 1830.5034 0.0099292397
3.7060547 1839.3231 0.010015666
3.7158203 1847.147  0.010122806
3.7255859 1850.1094 0.010283142
3.7353516 1847.366  0.010341257
3.7451172 1848.6866 0.010394156
3.7548828 1850.4918 0.010435432
3.7646484 1852.3661 0.010563731
3.7744141 1852.6842 0.010560304
3.7841797 1857.5599 0.010656267
3.7939453 1866.8138 0.010703504
3.8037109 1873.7166 0.010776222
3.8134766 1871.4116 0.01084134
3.8232422 1865.5186 0.010843277
3.8330078 1866.6174 0.010879785
3.8427734 1876.4106 0.010968149
3.8525391 1877.201  0.01098007
3.8623047 1877.9619 0.01109615
3.8720703 1877.603  0.011092126
3.8818359 1879.0374 0.011149347
3.8916016 1874.1813 0.011107773
3.9013672 1870.1964 0.011084825
3.9111328 1869.4773 0.011125803
3.9208984 1883.8929 0.011257231
3.9306641 1894.8966 0.011306405
3.9404297 1907.4406 0.011459589
3.9501953 1913.985  0.011527538
3.9599609 1906.6777 0.011505336
3.9697266 1906.0948 0.011557341
3.9794922 1910.9446 0.011643767
3.9892578 1919.7072 0.011722594
3.9990234 1923.3534 0.011767298
4.0087891 1918.2563 0.011776835
4.0185547 1912.8264 0.011794418
4.0283203 1910.8306 0.01178354
4.0380859 1911.5846 0.011885166
4.0478516 1918.082  0.011875927
4.0576172 1916.0465 0.01192674
4.0673828 1924.459  0.011971891
4.0771484 1935.9152 0.012039244
4.0869141 1943.1715 0.01212433
4.0966797 1954.4219 0.01222983
4.1064453 1962.1617 0.012345612
4.1162109 1960.8649 0.012451857
4.1259766 1967.2446 0.012514442
4.1357422 1977.2191 0.012645423
4.1455078 1984.0695 0.012714714
4.1552734 1980.9393 0.012787282
4.1650391 1975.4678 0.012801588
4.1748047 1970.2148 0.012809038
4.1845703 1968.6858 0.01287505
4.1943359 1977.354  0.012956709
4.2041016 1985.4034 0.012996793
4.2138672 1992.5929 0.013042539
4.2236328 2000.6738 0.01319617
4.2333984 2007.6788 0.013257414
4.2431641 2005.171  0.013301075
4.2529297 2005.2419 0.013349801
4.2626953 2015.6348 0.013452023
4.2724609 2027.1707 0.013600588
4.2822266 2031.665  0.013684183
4.2919922 2040.4584 0.013807714
4.3017578 2045.9324 0.013911873
4.3115234 2046.3821 0.013967901
4.3212891 2043.7166 0.014066398
4.3310547 2037.2338 0.014030486
4.3408203 2033.2646 0.01406312
4.3505859 2038.2858 0.014125854
4.3603516 2044.063  0.014185309
4.3701172 2053.8777 0.014296174
4.3798828 2061.8948 0.014368296
4.3896484 2064.4641 0.014442205
4.3994141 2056.9253 0.014452338
4.4091797 2061.2388 0.014421046
4.4189453 2068.4993 0.014534891
4.4287109 2070.6982 0.014598668
4.4384766 2081.1665 0.014659911
4.4482422 2086.1865 0.014840662
4.4580078 2088.4502 0.014849901
4.4677734 2089.7004 0.014884472
4.4775391 2094.925  0.014995635
4.4873047 2098.2971 0.015042275
4.4970703 2103.667  0.015071929
4.5068359 2109.7964 0.015217811
4.5166016 2110.7146 0.015243143
4.5263672 2111.7632 0.015296489
4.5361328 2119.4841 0.015383959
4.5458984 2121.811  0.015450269
4.5556641 2129.6318 0.01554653
4.5654297 2132.8079 0.015609115
4.5751953 2135.2471 0.015664846
4.5849609 2136.9033 0.015762597
4.5947266 2137.2839 0.015800744
4.6044922 2133.3564 0.015784353
4.6142578 2130.0718 0.015839934
4.6240234 2124.2651 0.015800595
4.6337891 2120.0042 0.015790761
4.6435547 2115.5935 0.015695393
4.6533203 2116.0911 0.015830696
4.6630859 2127.0471 0.015912503
4.6728516 2138.2788 0.0159958
4.6826172 2143.4407 0.016020387
4.6923828 2154.8767 0.01610741
4.7021484 2160.4119 0.016171783
4.7119141 2161.5872 0.016162246
4.7216797 2155.4846 0.01616165
4.7314453 2150.7776 0.016196668
4.7412109 2158.6904 0.016279519
4.7509766 2170.8333 0.016378164
4.7607422 2177.4517 0.016395003
4.7705078 2185.6841 0.016549975
4.7802734 2189.5798 0.016622841
4.7900391 2191.801  0.016654581
4.7998047 2195.4001 0.016740263
4.8095703 2193.0996 0.016740859
4.8193359 2186.7578 0.016779602
4.8291016 2183.5173 0.016805381
4.8388672 2179.4622 0.016724914
4.8486328 2183.1914 0.016829073
4.8583984 2189.1621 0.01689747
4.8681641 2201.7222 0.016996264
4.8779297 2212.1382 0.017055571
4.8876953 2222.2407 0.017149895
4.8974609 2219.3962 0.017185062
4.9072266 2212.3701 0.017223358
4.9169922 2210.0127 0.017222464
4.9267578 2213.2456 0.017278641
4.9365234 2228.2627 0.017381907
4.9462891 2236.7334 0.017436445
4.9560547 2240.0334 0.017488599
4.9658203 2234.6062 0.017525256
4.9755859 2237.3989 0.017560869
4.9853516 2242.8005 0.017661452
4.9951172 2253.259  0.017728359
5.0048828 2256.6885 0.017813146
5.0146484 2254.9834 0.01785621
5.0244141 2250.2075 0.01786083
5.0341797 2251.0066 0.01787737
5.0439453 2254.5457 0.017955005
5.0537109 2258.8721 0.018008947
5.0634766 2259.7698 0.018033832
5.0732422 2258.4456 0.0180538
5.0830078 2257.5532 0.018049181
5.0927734 2270.5425 0.018167347
5.1025391 2279.9119 0.018229485
5.1123047 2286.0164 0.018265694
5.1220703 2285.3113 0.018327087
5.1318359 2291.1523 0.018444955
5.1416016 2301.0928 0.018523932
5.1513672 2310.4075 0.018610358
5.1611328 2316.0376 0.018692613
5.1708984 2315.0374 0.01880452
5.1806641 2319.8733 0.018836111
5.1904297 2330.3735 0.01901865
5.2001953 2338.1401 0.019068867
5.2099609 2336.6299 0.019119978
5.2197266 2340.6921 0.019263923
5.2294922 2342.4341 0.019284785
5.2392578 2351.2546 0.019385666
5.2490234 2360.3    0.019521415
5.2587891 2362.6277 0.019591451
5.2685547 2363.4448 0.019694718
5.2783203 2371.6648 0.019736441
5.2880859 2373.2839 0.019821525
5.2978516 2366.9233 0.019830167
5.3076172 2366.3833 0.019900501
5.3173828 2373.8979 0.019937158
5.3271484 2382.6489 0.02004534
5.3369141 2391.9561 0.020078719
5.3466797 2395.4817 0.020189285
5.3564453 2401.6914 0.020292997
5.3662109 2400.0183 0.020326376
5.3759766 2393.4165 0.020343812
5.3857422 2386.7063 0.02029866
5.3955078 2384.1431 0.020339044
5.4052734 2384.7808 0.020371525
5.4150391 2386.1514 0.020386875
5.4248047 2389.9724 0.020430982
5.4345703 2395.262  0.020468386
5.4443359 2391.9167 0.020484626
5.4541016 2388.0969 0.020485966
5.4638672 2392.77   0.020521879
5.4736328 2400.707  0.020543933
5.4833984 2410.2529 0.020612923
5.4931641 2420.7764 0.020792929
5.5029297 2420.896  0.020720363
5.5126953 2420.6851 0.020774603
5.5224609 2420.1995 0.020805748
5.5322266 2429.4365 0.020914078
5.5419922 2442.8218 0.020949841
5.5517578 2451.5017 0.021091402
5.5615234 2462.6389 0.02121195
5.5712891 2472.3828 0.021315217
5.5810547 2480.4456 0.02140373
5.5908203 2484.8301 0.021567496
5.6005859 2491.7612 0.021677168
5.6103516 2489.321  0.021725297
5.6201172 2493.2971 0.021782963
5.6298828 2495.6367 0.021902323
5.6396484 2494.5801 0.021914689
5.6494141 2491.1172 0.02193898
5.6591797 2485.7039 0.02194047
5.6689453 2481.1101 0.021984132
5.6787109 2481.4014 0.021996796
5.6884766 2494.4819 0.022080986
5.6982422 2506.5361 0.022166817
5.7080078 2518.0669 0.022237003
5.7177734 2526.3477 0.022321641
5.7275391 2533.4568 0.022430865
5.7373047 2536.3091 0.022474376
5.7470703 2540.8242 0.022554247
5.7568359 2544.5657 0.022631137
5.7666016 2548.6531 0.022725614
5.7763672 2554.6804 0.022795947
5.7861328 2556.1538 0.022838863
5.7958984 2546.3972 0.022844521
5.8056641 2539.0515 0.022875667
5.8154297 2536.9644 0.022889376
5.8251953 2546.7566 0.022953002
5.8349609 2555.2974 0.023033619
5.8447266 2560.4802 0.023099931
5.8544922 2565.96   0.023166092
5.8642578 2569.8486 0.023212584
