MTS793|MPT|ENU|1|0|.|/|:|1|0|0|A

Data Acquisition                                            Time:     10.023438 s         4/20/2017 10:18:01 AM
Time      Ch 1 Force Ch 1 Displacement
s         lbf       in
0.032226563 16.293041 -6.2435865e-05
0.041992188 18.608868 -5.4687262e-05
0.051757813 21.45376 -3.516674e-05
0.061523438 29.325708 2.3543835e-05
0.071289063 32.454987 3.5315752e-05
0.081054688 41.578522 9.8496675e-05
0.090820313 46.711826 0.00012174249
0.10058594 51.627605 0.00015720725
0.11035156 59.985516 0.00019818544
0.12011719 75.064453 0.00031605363
0.12988281 81.881134 0.00040322542
0.13964844 95.060913 0.00048041344
0.14941406 104.70964 0.0005851686
0.15917969 114.16991 0.0005941093
0.16894531 119.73125 0.00069871545
0.17871094 124.80527 0.00069916248
0.18847656 130.87167 0.0007429719
0.19824219 135.47926 0.00078618526
0.20800781 143.42911 0.00085920095
0.21777344 152.65364 0.00089451671
0.22753906 162.25021 0.0010082126
0.23730469 172.48462 0.001090914
0.24707031 184.98651 0.0011539459
0.25683594 198.54945 0.0012299418
0.26660156 205.90193 0.0013044477
0.27636719 215.31384 0.0013746321
0.28613281 220.82877 0.0014302135
0.29589844 228.80942 0.0015039742
0.30566406 229.88028 0.0014737248
0.31542969 234.1088 0.0015613437
0.32519531 242.27945 0.0015568733
0.33496094 248.42699 0.0015942752
0.34472656 256.39163 0.0016614795
0.35449219 263.47293 0.001707077
0.36425781 273.17099 0.0017432868
0.37402344 287.18658 0.0018078089
0.38378906 304.8833 0.0018873811
0.39355469 321.56995 0.0020292401
0.40332031 326.76126 0.0020124018
0.41308594 335.30597 0.002104938
0.42285156 345.32858 0.002156198
0.43261719 353.09387 0.0022180378
0.44238281 369.46716 0.0022815168
0.45214844 380.57278 0.0022946298
0.46191406 387.01312 0.0023637712
0.47167969 396.41815 0.0023888052
0.48144531 403.4408 0.0024855137
0.49121094 416.0549 0.0025266409
0.50097656 433.35181 0.0026158988
0.51074219 443.194  0.0026138127
0.52050781 455.21545 0.0027260184
0.53027344 469.60095 0.0027991831
0.54003906 481.42514 0.0028423965
0.54980469 491.5162 0.0029312074
0.55957031 508.79419 0.0030149519
0.56933594 519.23022 0.003053844
0.57910156 530.98309 0.0030988455
0.58886719 545.46704 0.0031964481
0.59863281 557.71735 0.0032570958
0.60839844 564.23041 0.0032916665
0.61816406 572.67053 0.0033047795
0.62792969 575.8396 0.0033700466
0.63769531 585.19434 0.0034363568
0.64746094 600.60205 0.0034692883
0.65722656 615.6969 0.0036096573
0.66699219 626.51953 0.0036264956
0.67675781 641.46576 0.0037412345
0.68652344 648.15826 0.0037318468
0.69628906 657.47711 0.0037649274
0.70605469 666.08246 0.0038537383
0.71582031 674.86548 0.0038968027
0.72558594 682.70917 0.003926903
0.73535156 693.79974 0.004004389
0.74511719 706.72894 0.0040519238
0.75488281 711.63342 0.0041131675
0.76464844 717.26599 0.0041241944
0.77441406 735.83777 0.0042508543
0.78417969 747.5918 0.004324913
0.79394531 754.20953 0.0043465197
0.80371094 764.24963 0.0043863058
0.81347656 785.12286 0.0045162439
0.82324219 795.73657 0.0045096874
0.83300781 801.20367 0.0045873225
0.84277344 818.50256 0.0046619773
0.85253906 826.51288 0.0047332048
0.86230469 838.06738 0.0047823787
0.87207031 856.0105 0.0048388541
0.88183594 866.39276 0.0049744546
0.89160156 875.56024 0.0049801171
0.90136719 876.9715 0.0050249696
0.91113281 882.52551 0.0050124526
0.92089844 894.73218 0.005081445
0.93066406 907.0434 0.0051693618
0.94042969 924.59979 0.0052522123
0.95019531 936.75061 0.0053077936
0.95996094 950.91449 0.0054217875
0.96972656 964.36432 0.0054337084
0.97949219 971.7605 0.0055064261
0.98925781 983.45709 0.0055645406
0.99902344 994.57239 0.0056256354
1.0087891 1006.322  0.0057029724
1.0185547 1011.3022 0.0057166815
1.0283203 1023.8278 0.0057889521
1.0380859 1034.1069 0.0058335066
1.0478516 1046.8152 0.0059261918
1.0576172 1054.3197 0.0059606135
1.0673828 1073.5563 0.0060513616
1.0771484 1078.8807 0.006070435
1.0869141 1082.536  0.0060909986
1.0966797 1095.2777 0.0061233342
1.1064453 1110.9617 0.0062572956
1.1162109 1128.0253 0.0063455105
1.1259766 1137.7136 0.0063586235
1.1357422 1147.868  0.0064656138
1.1455078 1149.6454 0.0064812601
1.1552734 1159.7217 0.0065346062
1.1650391 1173.6935 0.006595701
1.1748047 1180.1307 0.0066234171
1.1845703 1190.6179 0.00667274
1.1943359 1204.8436 0.0067476928
1.2041016 1213.5699 0.0067980587
1.2138672 1223.8995 0.0068467855
1.2236328 1242.1504 0.0069631636
1.2333984 1255.3301 0.0069689751
1.2431641 1262.8862 0.0070407987
1.2529297 1271.6464 0.0071214139
1.2626953 1280.9656 0.0071772933
1.2724609 1288.9377 0.0072069466
1.2822266 1296.8168 0.0072430074
1.2919922 1315.1263 0.0073343515
1.3017578 1328.9526 0.0074256957
1.3115234 1345.5554 0.0075499713
1.3212891 1353.5494 0.0075933337
1.3310547 1359.77   0.0076378882
1.3408203 1367.5662 0.0076431036
1.3505859 1381.9209 0.0077174604
1.3603516 1388.1018 0.0077871978
1.3701172 1389.0182 0.0077581406
1.3798828 1396.6541 0.0077846646
1.3896484 1418.757  0.0079087913
1.3994141 1432.5972 0.0079882145
1.4091797 1448.7874 0.0080490112
1.4189453 1463.8176 0.0081504881
1.4287109 1476.333  0.0082182884
1.4384766 1481.7642 0.0082598627
1.4482422 1487.9824 0.0083233416
1.4580078 1496.8167 0.0083351135
1.4677734 1504.9586 0.008392036
1.4775391 1512.4591 0.0084292889
1.4873047 1522.0931 0.0084397197
1.4970703 1530.744  0.0085043907
1.5068359 1549.4879 0.0086258352
1.5166016 1563.0498 0.0086864829
1.5263672 1578.7544 0.0087824464
1.5361328 1585.5927 0.0088302791
1.5458984 1592.9261 0.0088256598
1.5556641 1597.7659 0.0088876486
1.5654297 1614.9572 0.0090043247
1.5751953 1627.6655 0.0090642273
1.5849609 1642.5912 0.0090998411
1.5947266 1648.4091 0.0091846287
1.6044922 1651.6384 0.009188205
1.6142578 1657.0869 0.0092256069
1.6240234 1672.209  0.0092874467
1.6337891 1686.5818 0.0093588233
1.6435547 1706.2306 0.0094932318
1.6533203 1710.4117 0.0095160306
1.6630859 1715.1196 0.0095587969
1.6728516 1722.0872 0.0096097589
1.6826172 1733.7177 0.0096681714
1.6923828 1744.077  0.0096867979
1.7021484 1760.752  0.0097902119
1.7119141 1775.257  0.009906441
1.7216797 1787.4038 0.0099420547
1.7314453 1793.2789 0.0099897385
1.7412109 1803.5684 0.010078102
1.7509766 1814.4398 0.010076761
1.7607422 1828.5328 0.010166317
1.7705078 1830.2174 0.010233521
1.7802734 1837.5939 0.010232776
1.7900391 1846.1799 0.010270327
1.7998047 1847.1046 0.010315329
1.8095703 1858.3942 0.010308921
1.8193359 1878.6967 0.010484159
1.8291016 1889.0773 0.010607988
1.8388672 1897.3663 0.010566562
1.8486328 1909.8606 0.010691434
1.8583984 1918.0596 0.010748208
1.8681641 1925.2731 0.010793954
1.8779297 1931.7126 0.010816902
1.8876953 1938.2122 0.010917932
1.8974609 1947.953  0.010969341
1.9072266 1952.7474 0.011023581
1.9169922 1964.3625 0.011108965
1.9267578 1974.665  0.01119107
1.9365234 1975.2909 0.011243224
1.9462891 1977.7677 0.011258125
1.9560547 1986.1456 0.011290014
1.9658203 1997.7478 0.011408776
1.9755859 2004.6061 0.011463463
1.9853516 2013.4012 0.011567473
1.9951172 2014.5364 0.011548847
2.0048828 2017.8246 0.011589825
2.0146484 2023.1388 0.011654645
2.0244141 2029.9756 0.011664033
2.0341797 2039.1113 0.011747926
2.0439453 2047.3949 0.011822432
2.0537109 2051.7356 0.011926889
2.0634766 2058.4868 0.01195088
2.0732422 2061.189  0.01201883
2.0830078 2065.4539 0.012057126
2.0927734 2066.4138 0.012097806
2.1025391 2079.5942 0.012207031
2.1123047 2087.2668 0.012239814
2.1220703 2088.7578 0.012301654
2.1318359 2105.2192 0.012423396
2.1416016 2107.1401 0.012431294
2.1513672 2107.6831 0.012456626
2.1611328 2108.5891 0.012487024
2.1708984 2120.4294 0.012534559
2.1806641 2137.1345 0.012715608
2.1904297 2138.428  0.012747496
2.2001953 2145.2363 0.012796223
2.2099609 2148.1636 0.012847781
2.2197266 2156.3516 0.012917817
2.2294922 2159.7991 0.012992471
2.2392578 2171.0806 0.013067871
2.2490234 2172.5486 0.013136268
2.2587891 2171.9109 0.013134629
2.2685547 2170.1558 0.013162047
2.2783203 2179.512  0.013229847
2.2880859 2187.0789 0.013317317
2.2978516 2195.5762 0.01333788
2.3076172 2203.6941 0.013413727
2.3173828 2213.1963 0.013478994
2.3271484 2222.8579 0.013610125
2.3369141 2223.0481 0.013618767
2.3466797 2228.9209 0.013707131
2.3564453 2231.1057 0.013738424
2.3662109 2229.4912 0.013782531
2.3759766 2238.8784 0.013849288
2.3857422 2246.3442 0.013948083
2.3955078 2243.7793 0.013895333
2.4052734 2247.262  0.013967901
2.4150391 2252.885  0.014050454
2.4248047 2256.2893 0.014021695
2.4345703 2267.5352 0.014120787
2.4443359 2272.0757 0.014192015
2.4541016 2282.7156 0.014318675
2.4638672 2288.9968 0.014341921
2.4736328 2289.8433 0.01440078
2.4833984 2291.5669 0.014437884
2.4931641 2298.7261 0.014508516
2.5029297 2301.0071 0.014518797
2.5126953 2310.8704 0.014618933
2.5224609 2321.0684 0.01471445
2.5322266 2330.8425 0.01481086
2.5419922 2335.5747 0.014921278
2.5517578 2341.7832 0.014939308
2.5615234 2335.7632 0.014942735
2.5712891 2335.6165 0.014975369
2.5810547 2346.0623 0.015058368
2.5908203 2356.9675 0.015181303
2.6005859 2357.2808 0.015210807
2.6103516 2362.1035 0.015265346
2.6201172 2369.9758 0.015366971
2.6298828 2365.5813 0.015357733
2.6396484 2362.3074 0.015351176
2.6494141 2372.7678 0.015414804
2.6591797 2385.6187 0.015505701
2.6689453 2387.8958 0.015565753
2.6787109 2390.8276 0.015627146
2.6884766 2401.4102 0.015684813
2.6982422 2408.5144 0.015760213
2.7080078 2415.1721 0.015842319
2.7177734 2413.6721 0.015885681
2.7275391 2414.051  0.01593262
2.7373047 2419.2402 0.015977472
2.7470703 2432.3135 0.016071945
2.7568359 2436.3552 0.016105324
2.7666016 2438.3684 0.016153157
2.7763672 2442.7571 0.016211867
2.7861328 2440.1292 0.016261935
2.7958984 2441.6985 0.016277432
2.8056641 2448.6333 0.016338527
2.8154297 2457.8938 0.016417801
2.8251953 2474.0415 0.016483814
2.8349609 2477.3245 0.016617477
2.8447266 2473.2573 0.016656518
2.8544922 2473.375  0.016666949
2.8642578 2482.5925 0.016753525
2.8740234 2491.1335 0.016827434
2.8837891 2499.9761 0.01693964
2.8935547 2502.96   0.01694113
2.9033203 2501.1052 0.017008781
2.9130859 2506.2808 0.017006546
2.9228516 2505.4438 0.017030537
2.9326172 2512.3301 0.017078817
2.9423828 2517.6633 0.017153025
2.9521484 2523.5645 0.017223209
2.9619141 2530.2139 0.01732111
2.9716797 2536.9441 0.017337948
2.9814453 2544.2395 0.017410964
2.9912109 2553.0549 0.017517507
3.0009766 2553.5784 0.017512739
3.0107422 2554.0273 0.017570853
3.0205078 2558.103  0.017651916
3.0302734 2570.8015 0.017742068
3.0400391 2578.9631 0.017855018
3.0498047 2581.7554 0.017886311
3.0595703 2581.0369 0.017904937
3.0693359 2590.4741 0.018010736
3.0791016 2606.1436 0.018064678
3.0888672 2610.8635 0.018203706
3.0986328 2604.3333 0.018220842
3.1083984 2600.8599 0.018233657
3.1181641 2603.5222 0.018279403
3.1279297 2610.8706 0.018309802
3.1376953 2618.5283 0.018390268
3.1474609 2623.3154 0.018449426
3.1572266 2630.5522 0.018485188
3.1669922 2636.5251 0.018598437
3.1767578 2639.2656 0.018608421
3.1865234 2644.6123 0.018690526
3.1962891 2643.7966 0.018738359
3.2060547 2650.0151 0.018780082
3.2158203 2658.531  0.018895715
3.2255859 2658.1846 0.018925369
3.2353516 2657.5784 0.01891166
3.2451172 2663.2654 0.018967837
3.2548828 2672.5242 0.019038916
3.2646484 2688.2197 0.019162893
3.2744141 2693.2522 0.019214451
3.2841797 2696.5344 0.019293725
3.2939453 2695.4885 0.019339174
3.3037109 2699.9307 0.019362122
3.3134766 2708.5413 0.019457489
3.3232422 2707.5825 0.0195463
3.3330078 2713.8496 0.019583702
3.3427734 2722.9839 0.019660145
3.3525391 2725.6792 0.019731967
3.3623047 2726.512  0.019729583
3.3720703 2730.7112 0.019833446
3.3818359 2735.199  0.019848645
3.3916016 2747.2466 0.019968303
3.4013672 2743.1367 0.020008683
3.4111328 2739.3206 0.019990953
3.4208984 2742.9324 0.019987524
3.4306641 2751.2136 0.020097792
3.4404297 2762.2222 0.020164402
3.4501953 2764.6382 0.02025187
3.4599609 2770.0669 0.020289719
3.4697266 2775.5344 0.020358562
3.4794922 2783.301  0.020393431
3.4892578 2791.2073 0.020469276
3.4990234 2793.2461 0.020536033
3.5087891 2799.26   0.020600259
3.5185547 2801.9561 0.020675957
3.5283203 2813.7004 0.020748377
3.5380859 2815.0828 0.020817073
3.5478516 2809.0535 0.020841511
3.5576172 2810.4626 0.020878466
3.5673828 2815.7158 0.020904541
3.5771484 2827.0574 0.021000803
3.5869141 2831.8801 0.021050572
3.5966797 2836.5142 0.021113157
3.6064453 2836.2639 0.021141021
3.6162109 2845.3379 0.021209121
3.6259766 2847.875  0.021257997
3.6357422 2857.334  0.021356344
3.6455078 2864.2085 0.021448433
3.6552734 2866.8928 0.021477044
3.6650391 2864.9897 0.021515489
3.6748047 2873.2219 0.021611603
3.6845703 2880.7751 0.021624565
3.6943359 2892.554  0.02173692
3.7041016 2896.9753 0.021803228
3.7138672 2900.6624 0.02185181
3.7236328 2907.095  0.021924226
3.7333984 2906.0657 0.021951199
3.7431641 2899.2024 0.021977575
3.7529297 2904.145  0.022029432
3.7626953 2912.2256 0.022116899
3.7724609 2916.5408 0.022151025
3.7822266 2922.5405 0.022199305
3.7919922 2924.2795 0.022276342
3.8017578 2933.6606 0.022339376
3.8115234 2939.7129 0.02240479
3.8212891 2939.9153 0.022426844
3.8310547 2947.917  0.022509694
3.8408203 2955.4141 0.022568405
3.8505859 2958.3704 0.022638738
3.8603516 2970.3838 0.022712795
3.8701172 2974.8269 0.02277106
3.8798828 2980.657  0.022842288
3.8896484 2978.6882 0.02289474
3.8994141 2978.061  0.022948829
3.9091797 2982.5129 0.022966564
3.9189453 2987.4829 0.023048369
3.9287109 2993.1738 0.023093522
3.9384766 2998.1323 0.023091435
3.9482422 3006.7153 0.023220778
3.9580078 3011.583  0.023281872
3.9677734 3012.2493 0.023315251
3.9775391 3015.0122 0.023346392
3.9873047 3024.4807 0.02342716
3.9970703 3024.0645 0.023493616
4.0068359 3027.8762 0.023495257
4.0166016 3034.2705 0.023604631
4.0263672 3042.1367 0.023648441
4.0361328 3045.9553 0.023757068
4.0458984 3046.9866 0.023792235
4.0556641 3048.7234 0.0237903
4.0654297 3058.0957 0.023893269
4.0751953 3062.7961 0.023933498
4.0849609 3070.9587 0.024062693
4.0947266 3079.4255 0.024076104
4.1044922 3086.2126 0.024138244
4.1142578 3082.4043 0.024215579
4.1240234 3090.5708 0.024305582
4.1337891 3089.3916 0.024324656
4.1435547 3087.1553 0.024362504
4.1533203 3092.1091 0.024423448
4.1630859 3096.5093 0.024442522
4.1728516 3101.1309 0.024514945
4.1826172 3107.3931 0.024553239
4.1923828 3118.949  0.024648607
4.2021484 3134.3416 0.024764836
4.2119141 3131.5239 0.024778247
4.2216797 3129.6172 0.024859754
4.2314453 3132.8838 0.024901927
4.2412109 3135.8499 0.024917873
4.2509766 3142.6887 0.025045872
4.2607422 3151.1147 0.025060026
4.2705078 3155.8701 0.025184155
4.2802734 3156.5823 0.025163591
4.2900391 3163.3909 0.025269834
4.2998047 3169.4729 0.025303213
4.3095703 3174.967  0.025368182
4.3193359 3184.4563 0.02546072
4.3291016 3193.688  0.025582163
4.3388672 3193.7478 0.025557876
4.3486328 3195.7219 0.025655031
4.3583984 3196.7046 0.025716424
4.3681641 3207.5781 0.025796143
4.3779297 3208.374  0.025821626
4.3876953 3218.7192 0.02593592
4.3974609 3222.3574 0.025970638
4.4072266 3226.1377 0.026020408
4.4169922 3235.843  0.026101246
4.4267578 3237.8403 0.026157573
4.4365234 3233.334  0.02618715
4.4462891 3231.8132 0.026206151
4.4560547 3241.4163 0.026304424
4.4658203 3251.5073 0.026345253
4.4755859 3252.4189 0.026427805
4.4853516 3251.9128 0.026470423
4.4951172 3255.2114 0.026486441
4.5048828 3260.2209 0.026525259
4.5146484 3258.1169 0.026565492
4.5244141 3269.2463 0.026627628
4.5341797 3275.4963 0.026677696
4.5439453 3279.9976 0.026779845
4.5537109 3288.7185 0.026818737
4.5634766 3294.7476 0.026882365
4.5732422 3296.4028 0.02695553
4.5830078 3305.2192 0.027033389
4.5927734 3309.9829 0.027121082
4.6025391 3315.8948 0.02714351
4.6123047 3320.9055 0.027262568
4.6220703 3318.8533 0.027298629
4.6318359 3327.113  0.027372912
4.6416016 3331.479  0.027435867
4.6513672 3336.0342 0.027474912
4.6611328 3340.5159 0.027554782
4.6708984 3347.3594 0.027623251
4.6806641 3346.644  0.027631149
4.6904297 3350.1125 0.027727559
4.7001953 3352.0688 0.027722716
4.7099609 3356.782  0.027810708
4.7197266 3371.4155 0.027932897
4.7294922 3377.9353 0.027963519
4.7392578 3375.2891 0.02799429
4.7490234 3378.2661 0.028089134
4.7587891 3380.3235 0.028110445
4.7685547 3386.9043 0.028176157
4.7783203 3386.8604 0.028197765
4.7880859 3393.5757 0.028290823
4.7978516 3398.6826 0.028345361
4.8076172 3404.155  0.028376505
4.8173828 3410.3574 0.028434841
4.8271484 3417.2566 0.02855614
4.8369141 3420.6125 0.028633626
4.8466797 3415.6458 0.028562024
4.8564453 3422.4866 0.028652623
4.8662109 3425.0825 0.02872318
4.8759766 3428.9324 0.028745381
4.8857422 3438.0642 0.028818846
4.8955078 3446.2769 0.028876439
4.9052734 3446.3359 0.028931424
4.9150391 3450.198  0.028988568
4.9248047 3454.3562 0.02905339
4.9345703 3460.6069 0.029081628
4.9443359 3468.8892 0.029191896
4.9541016 3482.2893 0.029296279
4.9638672 3484.1062 0.029351413
4.9736328 3480.0437 0.029410871
4.9833984 3482.8774 0.029438734
4.9931641 3486.5354 0.029467046
5.0029297 3495.9546 0.029554518
5.0126953 3504.7209 0.029621348
5.0224609 3510.9221 0.029689297
5.0322266 3508.2881 0.029724391
5.0419922 3506.1072 0.029771626
5.0517578 3505.6079 0.029789956
5.0615234 3507.8582 0.029850379
5.0712891 3517.7424 0.029891729
5.0810547 3524.6516 0.029953793
5.0908203 3530.1355 0.030018091
5.1005859 3532.8428 0.030073078
5.1103516 3538.0183 0.030126795
5.1201172 3544.6108 0.030216202
5.1298828 3547.0808 0.030237213
5.1396484 3555.5916 0.030303374
5.1494141 3564.6235 0.030411556
5.1591797 3566.0977 0.030440243
5.1689453 3570.4424 0.030512961
5.1787109 3575.22   0.030547826
5.1884766 3581.4927 0.030633509
5.1982422 3592.395  0.030757936
5.2080078 3597.1035 0.030817986
5.2177734 3601.6052 0.030840786
5.2275391 3602.6233 0.030917749
5.2373047 3601.7666 0.030962601
5.2470703 3607.748  0.03102459
5.2568359 3606.3086 0.031029209
5.2666016 3607.9883 0.031032562
5.2763672 3624.7397 0.031198487
5.2861328 3625.7256 0.031268522
5.2958984 3626.9858 0.031267703
5.3056641 3630.8225 0.031303167
5.3154297 3640.8098 0.031391606
5.3251953 3650.0439 0.031495094
5.3349609 3651.1931 0.031551048
5.3447266 3651.1279 0.031601414
5.3544922 3661.6306 0.031661689
5.3642578 3672.9463 0.031747445
5.3740234 3679.6028 0.031834692
5.3837891 3676.8933 0.031881705
5.3935547 3682.4226 0.031931475
5.4033203 3685.4983 0.032003
5.4130859 3685.01   0.032026023
5.4228516 3681.6357 0.032070875
5.4326172 3684.1807 0.032107085
5.4423828 3687.1882 0.032095164
5.4521484 3698.8938 0.032227188
5.4619141 3705.03   0.032288879
5.4716797 3716.1665 0.0323724
5.4814453 3714.0566 0.032389387
5.4912109 3715.8574 0.0323838
5.5009766 3718.7461 0.03245607
5.5107422 3725.2964 0.032547712
5.5205078 3728.8618 0.032577589
5.5302734 3749.084  0.032712221
5.5400391 3754.5269 0.032768622
5.5498047 3757.2939 0.032837614
5.5595703 3752.717  0.032881051
5.5693359 3749.4006 0.032891631
5.5791016 3756.1902 0.032983795
5.5888672 3756.3035 0.03293775
5.5986328 3759.814  0.033031255
5.6083984 3766.7947 0.033092499
5.6181641 3774.7893 0.03316991
5.6279297 3783.5464 0.033200607
5.6376953 3789.4221 0.033304393
5.6474609 3796.7859 0.033360496
5.6572266 3806.2969 0.033405051
5.6669922 3801.9661 0.033441111
5.6767578 3806.0417 0.033511147
5.6865234 3806.8987 0.033586547
5.6962891 3813.9524 0.033654645
5.7060547 3822.1782 0.033729821
5.7158203 3830.6975 0.033882111
5.7255859 3831.7283 0.033896863
5.7353516 3837.4023 0.033934563
5.7451172 3843.9658 0.034012347
5.7548828 3844.0217 0.034065992
5.7646484 3844.646  0.034107491
5.7744141 3845.5593 0.034121573
5.7841797 3849.7412 0.034167171
5.7939453 3856.541  0.034246072
5.8037109 3867.0977 0.034318641
5.8134766 3871.209  0.03438361
5.8232422 3872.4858 0.034415573
5.8330078 3874.7349 0.03444232
5.8427734 3878.2034 0.034494027
5.8525391 3883.4243 0.034618154
5.8623047 3890.418  0.03462933
5.8720703 3898.0303 0.034648925
5.8818359 3902.47   0.034800172
5.8916016 3901.5959 0.034820661
5.9013672 3908.5405 0.03481634
5.9111328 3910.8547 0.034909323
5.9208984 3915.9871 0.035009608
5.9306641 3920.7495 0.0350146
5.9404297 3927.2397 0.035085902
5.9501953 3929.7739 0.035129189
5.9599609 3933.0923 0.03520444
5.9697266 3937.8262 0.035283342
5.9794922 3951.1755 0.035339519
5.9892578 3953.6655 0.035422593
