MTS793|MPT|ENU|1|0|.|/|:|1|0|0|A

Data Acquisition                                            Time:     10.021484 s         4/20/2017 10:40:47 AM
Time      Ch 1 Force Ch 1 Displacement
s         lbf       in
0.030273438 17.786417 3.8743019e-05
0.040039063 17.031563 7.1525574e-06
0.049804688 16.259979 8.3446503e-06
0.059570313 15.823972 2.1606684e-05
0.069335938 18.231403 1.8030405e-05
0.079101563 19.771885 6.4820051e-05
0.088867188 21.36821 4.3362379e-05
0.098632813 26.282091 8.6277723e-05
0.10839844 33.069645 0.00014305115
0.11816406 40.797386 0.00020727515
0.12792969 48.180874 0.00028029084
0.13769531 50.241184 0.0002963841
0.14746094 56.142044 0.00029489398
0.15722656 61.583496 0.00039756298
0.16699219 69.411415 0.00045403838
0.17675781 79.083725 0.00052213669
0.18652344 90.514519 0.00062584877
0.19628906 96.257164 0.00068545341
0.20605469 100.4866 0.00069573522
0.21582031 106.06764 0.00072449446
0.22558594 112.1918 0.00080704689
0.23535156 123.53835 0.00086888671
0.24511719 134.50471 0.00093400478
0.25488281 142.05464 0.00099092722
0.26464844 148.52463 0.0010241568
0.27441406 158.69566 0.0011689961
0.28417969 164.65297 0.0012074411
0.29394531 171.14369 0.0012232363
0.30371094 177.48477 0.0012643635
0.31347656 180.14201 0.001295954
0.32324219 183.95131 0.0012968481
0.33300781 191.69868 0.0013996661
0.34277344 197.09052 0.0014209747
0.35253906 209.75186 0.0015100837
0.36230469 216.53822 0.0016205013
0.37207031 223.65445 0.0016248226
0.38183594 227.57629 0.0016959012
0.39160156 234.68672 0.0017347932
0.40136719 244.75032 0.0017917156
0.41113281 256.57114 0.0018772483
0.42089844 275.70102 0.0019904971
0.43066406 283.78748 0.002041012
0.44042969 292.39401 0.0020518899
0.45019531 304.12833 0.0021116436
0.45996094 307.14056 0.0021605194
0.46972656 317.66098 0.0022137165
0.47949219 336.55902 0.0022764504
0.48925781 344.76724 0.0023306906
0.49902344 357.88043 0.0024540722
0.50878906 363.36053 0.0024607778
0.51855469 374.54102 0.0025168061
0.52832031 384.2262 0.0025601685
0.53808594 394.30377 0.0025984645
0.54785156 403.36264 0.0026527047
0.55761719 412.75946 0.0027480721
0.56738281 425.50696 0.0028222799
0.57714844 445.4342 0.0028842688
0.58691406 451.90863 0.0029088557
0.59667969 459.7634 0.0029607117
0.60644531 475.91879 0.0030590594
0.61621094 488.55655 0.0031434
0.62597656 494.84131 0.0031346083
0.63574219 501.66312 0.003182441
0.64550781 513.19739 0.0032278895
0.65527344 533.96704 0.0033687055
0.66503906 542.13818 0.0034269691
0.67480469 558.14709 0.0034703314
0.68457031 570.55359 0.0035662949
0.69433594 582.18335 0.0035896897
0.70410156 592.90308 0.0036886334
0.71386719 601.5993 0.0037290156
0.72363281 615.79541 0.003837347
0.73339844 628.52649 0.0038570166
0.74316406 636.06537 0.0039047003
0.75292969 640.71375 0.0039018691
0.76269531 661.59674 0.0040584803
0.77246094 677.43634 0.004106313
0.78222656 688.9621 0.0041745603
0.79199219 699.48212 0.0042526424
0.80175781 708.2644 0.004299134
0.81152344 712.80371 0.0043271482
0.82128906 725.96021 0.0044122338
0.83105469 736.81793 0.0044600666
0.84082031 743.97614 0.0044749677
0.85058594 753.96326 0.0045070052
0.86035156 765.81238 0.0046102703
0.87011719 784.07068 0.004722476
0.87988281 794.41522 0.0047472119
0.88964844 799.17712 0.0048314035
0.89941406 808.56439 0.0048296154
0.90917969 820.32642 0.0049170852
0.91894531 832.37842 0.0049598515
0.92871094 837.0365 0.0049987435
0.93847656 841.23975 0.0050035119
0.94824219 845.66345 0.0050276518
0.95800781 851.83447 0.0050976872
0.96777344 868.33057 0.005197823
0.97753906 886.7179 0.0052993
0.98730469 895.9762 0.0053165853
0.99707031 902.67017 0.0053875148
1.0068359 915.9903  0.0054870546
1.0166016 925.83868 0.0054909289
1.0263672 932.21973 0.0055615604
1.0361328 944.94501 0.0056172907
1.0458984 948.17401 0.0056417286
1.0556641 949.08044 0.005723536
1.0654297 966.21045 0.0057816505
1.0751953 982.8847  0.0058685243
1.0849609 990.6123  0.0058995187
1.0947266 1002.9296 0.006006062
1.1044922 1012.8177 0.0061000884
1.1142578 1017.9774 0.0061048567
1.1240234 1032.0222 0.0061687827
1.1337891 1035.5177 0.0062210858
1.1435547 1043.6205 0.0062474608
1.1533203 1062.4739 0.0064256787
1.1630859 1069.9019 0.0064378977
1.1728516 1071.6926 0.0065095723
1.1826172 1084.4226 0.0065048039
1.1923828 1086.8018 0.0065620244
1.2021484 1090.2439 0.0065679848
1.2119141 1105.6677 0.006686002
1.2216797 1125.0798 0.0068083405
1.2314453 1125.7557 0.0068278611
1.2412109 1125.688  0.006840229
1.2509766 1133.6183 0.0068847835
1.2607422 1148.838  0.0069732964
1.2705078 1159.2896 0.0070330501
1.2802734 1171.1991 0.0070922077
1.2900391 1182.9592 0.0071929395
1.2998047 1194.2515 0.0072808564
1.3095703 1199.6409 0.0072991848
1.3193359 1203.8508 0.0073496997
1.3291016 1214.6918 0.0073954463
1.3388672 1223.0078 0.0074994564
1.3486328 1222.0968 0.0075246394
1.3583984 1225.2891 0.0075441599
1.3681641 1227.8008 0.0075651705
1.3779297 1233.6666 0.0076061487
1.3876953 1244.3585 0.0077030063
1.3974609 1267.7839 0.0078095496
1.4072266 1280.9298 0.007879734
1.4169922 1286.3669 0.0078955293
1.4267578 1289.4994 0.0079581141
1.4365234 1300.6301 0.008058995
1.4462891 1304.8506 0.008007139
1.4560547 1313.3542 0.0081448257
1.4658203 1321.4083 0.0082093477
1.4755859 1328.3241 0.0082695484
1.4853516 1335.4102 0.008328557
1.4951172 1342.6893 0.0084075332
1.5048828 1345.5642 0.0084087253
1.5146484 1353.2277 0.0084714592
1.5244141 1362.906  0.0085288286
1.5341797 1370.4789 0.0085669756
1.5439453 1377.7295 0.0086589158
1.5537109 1386.6144 0.0086511672
1.5634766 1395.1785 0.0087496638
1.5732422 1401.1038 0.0088129938
1.5830078 1408.5403 0.0088703632
1.5927734 1410.6953 0.0089201331
1.6025391 1422.626  0.0089512765
1.6123047 1430.3807 0.0090129673
1.6220703 1443.191  0.0091266632
1.6318359 1453.1432 0.0091806054
1.6416016 1461.3153 0.0092731416
1.6513672 1468.9998 0.0093102455
1.6611328 1478.3331 0.0093865395
1.6708984 1486.825  0.009406209
1.6806641 1499.8466 0.0095541775
1.6904297 1509.9661 0.0095586479
1.7001953 1514.5991 0.009649545
1.7099609 1516.7002 0.0096859038
1.7197266 1524.9838 0.0097453594
1.7294922 1530.0636 0.0097946823
1.7392578 1534.9529 0.0098305941
1.7490234 1541.3182 0.0098754466
1.7587891 1550.984  0.009958446
1.7685547 1553.3291 0.009970665
1.7783203 1558.6155 0.010035634
1.7880859 1569.5553 0.01003027
1.7978516 1582.9927 0.010205209
1.8076172 1587.9114 0.01022175
1.8173828 1601.1488 0.010304451
1.8271484 1607.3188 0.010371059
1.8369141 1612.3789 0.010401756
1.8466797 1621.1538 0.010479093
1.8564453 1624.6947 0.010490417
1.8662109 1636.3335 0.010628849
1.8759766 1642.5313 0.010645539
1.8857422 1652.3398 0.010735095
1.8955078 1658.6918 0.010765791
1.9052734 1674.0237 0.010858774
1.9150391 1679.0726 0.010916293
1.9248047 1681.126  0.010947585
1.9345703 1685.3805 0.010991096
1.9443359 1697.7997 0.011080056
1.9541016 1699.7709 0.011095852
1.9638672 1713.4669 0.011184961
1.9736328 1717.053  0.011220574
1.9833984 1718.6409 0.011287332
1.9931641 1727.6565 0.011321455
2.0029297 1736.8662 0.011411905
2.0126953 1745.7084 0.011523962
2.0224609 1747.1906 0.011517704
2.0322266 1753.2483 0.011548251
2.0419922 1773.2317 0.011656731
2.0517578 1783.0281 0.011751652
2.0615234 1788.3649 0.011777133
2.0712891 1795.5712 0.011856258
2.0810547 1796.2518 0.011903793
2.0908203 1805.4441 0.011946857
2.1005859 1809.9376 0.012011081
2.1103516 1818.2377 0.012036264
2.1201172 1827.1794 0.012129247
2.1298828 1833.9922 0.012194067
2.1396484 1838.6218 0.012197047
2.1494141 1850.0673 0.012275577
2.1591797 1867.1049 0.012433082
2.1689453 1876.3324 0.012464821
2.1787109 1884.9027 0.01256898
2.1884766 1878.8242 0.012580454
2.1982422 1878.9939 0.012535304
2.2080078 1889.1431 0.012655854
2.2177734 1896.2717 0.012733638
2.2275391 1902.5977 0.01271978
2.2373047 1908.7714 0.012812167
2.2470703 1914.6592 0.012895018
2.2568359 1915.9526 0.012888014
2.2666016 1922.5889 0.012945235
2.2763672 1934.1112 0.01302734
2.2861328 1946.5386 0.013097376
2.2958984 1953.303  0.013165921
2.3056641 1959.2915 0.013220161
2.3154297 1966.1864 0.013272762
2.3251953 1976.3662 0.013379902
2.3349609 1984.135  0.013443977
2.3447266 1995.8483 0.013432056
2.3544922 2002.949  0.013555884
2.3642578 2005.3584 0.013571829
2.3740234 2015.344  0.013713092
2.3837891 2014.5242 0.013735592
2.3935547 2017.5004 0.013757348
2.4033203 2019.6161 0.013775229
2.4130859 2024.8309 0.013822168
2.4228516 2027.9437 0.013852865
2.4326172 2040.5822 0.013890713
2.4423828 2051.1038 0.014002472
2.4521484 2061.4946 0.014068335
2.4619141 2072.5693 0.014150292
2.4716797 2085.9597 0.014242679
2.4814453 2091.3994 0.014304668
2.4912109 2090.3154 0.014347434
2.5009766 2096.4856 0.01438871
2.5107422 2105.2266 0.0144355
2.5205078 2109.8333 0.014529377
2.5302734 2122.3232 0.014586449
2.5400391 2132.2456 0.014683008
2.5498047 2137.9712 0.014725924
2.5595703 2143.1689 0.014786124
2.5693359 2145.1721 0.014828146
2.5791016 2154.0664 0.014896244
2.5888672 2152.8362 0.014882982
2.5986328 2156.4575 0.014933646
2.6083984 2165.8257 0.014993846
2.6181641 2172.4546 0.015059114
2.6279297 2175.6604 0.015102178
2.6376953 2183.7908 0.015183836
2.6474609 2189.5168 0.015204549
2.6572266 2199.311  0.015374273
2.6669922 2206.1082 0.015384108
2.6767578 2220.345  0.015461743
2.6865234 2227.9192 0.015514791
2.6962891 2229.2173 0.015498698
2.7060547 2228.8469 0.01562044
2.7158203 2237.7874 0.015639663
2.7255859 2252.7583 0.01571238
2.7353516 2260.5139 0.01580447
2.7451172 2274.4417 0.015945733
2.7548828 2279.4634 0.015966743
2.7646484 2280.5022 0.016016364
2.7744141 2280.4253 0.016056299
2.7841797 2280.5862 0.016027838
2.7939453 2288.783  0.016120672
2.8037109 2297.8101 0.016196817
2.8134766 2299.4775 0.016217381
2.8232422 2318.4375 0.01636073
2.8330078 2329.6287 0.016431957
2.8427734 2336.7593 0.016504973
2.8525391 2340.9897 0.016509742
2.8623047 2344.4363 0.016593933
2.8720703 2345.8987 0.016613156
2.8818359 2349.2366 0.016679466
2.8916016 2365.8208 0.016780943
2.9013672 2370.5222 0.016832501
2.9111328 2378.0918 0.016878843
2.9208984 2378.9944 0.016913265
2.9306641 2378.1089 0.01692161
2.9404297 2390.4421 0.017029196
2.9501953 2392.4084 0.017060786
2.9599609 2395.9531 0.017100424
2.9697266 2397.4163 0.017149448
2.9794922 2401.5762 0.017143488
2.9892578 2415.7927 0.017219782
2.9990234 2423.7939 0.017287135
3.0087891 2437.9177 0.017454624
3.0185547 2452.145  0.01748845
3.0283203 2458.4312 0.017572492
3.0380859 2469.1069 0.017694682
3.0478516 2470.312  0.017705411
3.0576172 2467.7651 0.017742515
3.0673828 2469.1904 0.01776427
3.0771484 2478.3896 0.017831028
3.0869141 2489.2483 0.017917603
3.0966797 2490.3994 0.01793161
3.1064453 2498.969  0.018003434
3.1162109 2510.9534 0.018110722
3.1259766 2518.7612 0.018167198
3.1357422 2524.155  0.018188655
3.1455078 2528.8333 0.018253922
3.1552734 2532.5959 0.018334687
3.1650391 2534.394  0.018355101
3.1748047 2536.9634 0.018383563
3.1845703 2541.0215 0.01843363
3.1943359 2554.9417 0.018519908
3.2041016 2561.25   0.018590987
3.2138672 2569.1758 0.018674731
3.2236328 2578.303  0.018786788
3.2333984 2584.3848 0.018748343
3.2431641 2590.1389 0.018860251
3.2529297 2591.8945 0.018912107
3.2626953 2595.7727 0.018937439
3.2724609 2604.6409 0.018984377
3.2822266 2615.8855 0.019085854
3.2919922 2616.3416 0.01912564
3.3017578 2616.9399 0.019147098
3.3115234 2622.4614 0.019206703
3.3212891 2625.0596 0.019274354
3.3310547 2633.5662 0.019358546
3.3408203 2650.4546 0.019436628
3.3505859 2658.0132 0.019495636
3.3603516 2661.8962 0.019626766
3.3701172 2666.7073 0.019585937
3.3798828 2667.2219 0.019627661
3.3896484 2674.6538 0.019698441
3.3994141 2685.0913 0.019847902
3.4091797 2684.5845 0.019824803
3.4189453 2684.6802 0.019868461
3.4287109 2693.8079 0.01990482
3.4384766 2703.0527 0.02001673
3.4482422 2704.9197 0.020013301
3.4580078 2709.7708 0.020090787
3.4677734 2713.5769 0.020111203
3.4775391 2715.4675 0.020202398
3.4873047 2726.7764 0.020236969
3.4970703 2730.3562 0.020296276
3.5068359 2747.7798 0.020433815
3.5166016 2754.344  0.02050668
3.5263672 2763.5842 0.020597132
3.5361328 2767.5649 0.020606518
3.5458984 2762.1499 0.020637512
3.5556641 2765.5901 0.020670593
3.5654297 2770.1321 0.020765813
3.5751953 2767.5508 0.020693691
3.5849609 2781.0994 0.020798
3.5947266 2790.4446 0.020883679
3.6044922 2802.5315 0.020986946
3.6142578 2804.4565 0.02098039
3.6240234 2809.3342 0.0210543
3.6337891 2820.9888 0.021154284
3.6435547 2829.2998 0.021280797
3.6533203 2835.199  0.021301659
3.6630859 2836.7412 0.021339806
3.6728516 2841.0908 0.021418035
3.6826172 2844.8704 0.021448882
3.6923828 2849.75   0.02149895
3.7021484 2863.0444 0.021609366
3.7119141 2868.6609 0.021670163
3.7216797 2870.8359 0.02168864
3.7314453 2871.8672 0.021723211
3.7412109 2877.4194 0.021763889
3.7509766 2887.9402 0.021860154
3.7607422 2897.175  0.021978319
3.7705078 2903.6248 0.022001712
3.7802734 2901.4067 0.022032706
3.7900391 2899.4653 0.022066982
3.7998047 2909.0083 0.022111384
3.8095703 2915.7163 0.022185596
3.8193359 2916.5063 0.022229703
3.8291016 2930.052  0.022291692
3.8388672 2932.4829 0.022325814
3.8486328 2936.5554 0.022425501
3.8583984 2943.6692 0.022456797
3.8681641 2959.1467 0.022541285
3.8779297 2968.3882 0.02266988
3.8876953 2974.2266 0.022729786
3.8974609 2980.9644 0.022789538
3.9072266 2990.2046 0.022872536
3.9169922 2991.6948 0.022943318
3.9267578 2990.8569 0.022961795
3.9365234 2995.8145 0.023007544
3.9462891 2996.2043 0.02302587
3.9560547 2993.0891 0.023060592
3.9658203 2997.332  0.023117959
3.9755859 3003.4456 0.023149848
3.9853516 3012.5994 0.023224505
3.9951172 3026.3572 0.023369042
4.0048828 3029.8884 0.023392439
4.0146484 3034.0732 0.023447124
4.0244141 3035.9702 0.02347246
4.0341797 3050.0093 0.023564847
4.0439453 3060.1624 0.023696125
4.0537109 3069.4338 0.023742318
4.0634766 3073.7253 0.023782404
4.0732422 3076.856  0.02384752
4.0830078 3079.2766 0.02382323
4.0927734 3078.386  0.023943631
4.1025391 3086.0537 0.024003386
4.1123047 3088.9907 0.024055243
4.1220703 3093.877  0.024125131
4.1318359 3088.9653 0.024109928
4.1416016 3093.5    0.024187565
4.1513672 3109.0081 0.024308264
4.1611328 3118.8223 0.024342537
4.1708984 3121.7896 0.024436712
4.1806641 3119.0103 0.024452059
4.1904297 3119.2773 0.024493186
4.2001953 3129.7561 0.024551749
4.2099609 3138.6499 0.024631321
4.2197266 3145.4246 0.024667231
4.2294922 3148.1936 0.024729816
4.2392578 3154.2676 0.024805367
4.2490234 3160.1704 0.02489984
4.2587891 3160.8701 0.024897754
4.2685547 3163.01   0.024925319
4.2783203 3168.7261 0.025027394
4.2880859 3178.3574 0.025112184
4.2978516 3186.8257 0.025186984
4.3076172 3183.9731 0.025183408
4.3173828 3180.842  0.025200546
4.3271484 3188.2249 0.025267303
4.3369141 3195.9612 0.025343744
4.3466797 3205.2539 0.025396498
4.3564453 3208.1497 0.025445521
4.3662109 3210.251  0.025547445
4.3759766 3217.886  0.02561897
4.3857422 3222.5684 0.025633276
4.3955078 3229.1836 0.025706589
4.4052734 3235.1208 0.025751742
4.4150391 3242.304  0.025831612
4.4248047 3239.7334 0.02585396
4.4345703 3249.0718 0.025944265
4.4443359 3254.7095 0.026001779
4.4541016 3260.823  0.026108472
4.4638672 3265.9165 0.026142299
4.4736328 3271.4866 0.026196687
4.4833984 3280.5327 0.026251229
4.4931641 3288.5728 0.026379975
4.5029297 3284.8582 0.02635628
4.5126953 3278.4287 0.026425719
4.5224609 3285.5471 0.026467144
4.5322266 3289.8533 0.026499184
4.5419922 3294.6262 0.026568023
4.5517578 3298.6165 0.026582181
4.5615234 3312.2834 0.026690213
4.5712891 3320.3845 0.026784539
4.5810547 3325.6824 0.026833566
4.5908203 3325.6541 0.026881993
4.6005859 3323.9153 0.026893171
4.6103516 3325.2424 0.026936829
4.6201172 3334.9194 0.027015507
4.6298828 3349.1638 0.027063787
4.6396484 3369.0491 0.027272852
4.6494141 3372.7922 0.027338862
4.6591797 3365.6897 0.027315171
4.6689453 3364.6101 0.027387293
4.6787109 3361.769  0.02739683
4.6884766 3361.1292 0.027450172
4.6982422 3373.1353 0.027531536
4.7080078 3376.8843 0.027564915
4.7177734 3387.7114 0.02761081
4.7275391 3396.4854 0.027720034
4.7373047 3405.9954 0.02776161
4.7470703 3408.9846 0.027850866
4.7568359 3414.2756 0.027875749
4.7666016 3417.2356 0.027974546
4.7763672 3417.1003 0.027968884
4.7861328 3422.4746 0.028095094
4.7958984 3434.5688 0.028164236
4.8056641 3438.8066 0.028236954
4.8154297 3437.1326 0.028279424
4.8251953 3436.8071 0.028287768
4.8349609 3434.0686 0.028310267
4.8447266 3439.8623 0.028358102
4.8544922 3444.8765 0.028361082
4.8642578 3459.8245 0.028488934
4.8740234 3469.8533 0.02854228
4.8837891 3471.9385 0.02859637
4.8935547 3484.071  0.028692484
4.9033203 3496.3687 0.028824361
4.9130859 3499.3506 0.028932841
4.9228516 3496.9404 0.028921962
4.9326172 3495.3535 0.028961599
4.9423828 3495.0828 0.02897799
4.9521484 3498.3301 0.02898976
4.9619141 3507.9495 0.029134154
4.9716797 3510.6563 0.029169472
4.9814453 3516.749  0.029191077
4.9912109 3517.6194 0.02924517
5.0009766 3517.6418 0.029264538
5.0107422 3525.8047 0.02935067
5.0205078 3539.5981 0.029463172
5.0302734 3546.4829 0.029521883
5.0400391 3548.7603 0.0295566
5.0498047 3553.5879 0.029562561
5.0595703 3558.041  0.029656442
5.0693359 3558.0259 0.029724538
5.0791016 3560.3682 0.029728115
5.0888672 3569.0923 0.029826013
5.0986328 3578.7097 0.029918106
5.1083984 3587.7388 0.029961912
5.1181641 3591.4348 0.030021222
5.1279297 3597.3218 0.03009185
5.1376953 3598.6831 0.030153839
5.1474609 3605.6946 0.030249953
5.1572266 3604.936  0.030252488
5.1669922 3604.8096 0.030337421
5.1767578 3607.6448 0.030349048
5.1865234 3614.9644 0.030399712
5.1962891 3619.4614 0.030471532
5.2060547 3626.4836 0.030571969
5.2158203 3639.8521 0.030624716
5.2255859 3649.4075 0.03073171
5.2353516 3654.3186 0.030779092
5.2451172 3657.1177 0.030822456
5.2548828 3657.8274 0.030900391
5.2646484 3665.5764 0.0309515
5.2744141 3662.5325 0.031004548
5.2841797 3670.9778 0.031095445
5.2939453 3673.3369 0.03107175
5.3037109 3678.1694 0.031157434
5.3134766 3680.9844 0.031190069
5.3232422 3682.0818 0.031234622
5.3330078 3689.5361 0.031321943
5.3427734 3690.6099 0.031345636
5.3525391 3697.8325 0.031429827
5.3623047 3702.6675 0.031487495
5.3720703 3708.5984 0.031542331
5.3818359 3712.7097 0.031552315
5.3916016 3713.2529 0.031595081
5.4013672 3721.7339 0.031667203
5.4111328 3724.2034 0.031725317
5.4208984 3732.728  0.031798482
5.4306641 3749.8625 0.031884313
5.4404297 3754.3999 0.031975955
5.4501953 3753.6782 0.032036006
5.4599609 3754.3391 0.032095313
5.4697266 3758.4136 0.032133162
5.4794922 3764.4285 0.032230169
5.4892578 3767.0483 0.032256544
5.4990234 3768.1089 0.032218397
5.5087891 3768.5813 0.032322556
5.5185547 3779.1648 0.032373369
5.5283203 3786.7041 0.032466501
5.5380859 3790.6643 0.032467693
5.5478516 3795.304  0.032559633
5.5576172 3802.6101 0.032640845
5.5673828 3812.2007 0.032768101
5.5771484 3820.6934 0.032792985
5.5869141 3825.6592 0.032880902
5.5966797 3821.9343 0.032909065
5.6064453 3816.2922 0.032955259
5.6162109 3815.3325 0.032919347
5.6259766 3827.2114 0.032998025
5.6357422 3846.5557 0.033150911
5.6455078 3859.1948 0.033253431
5.6552734 3859.1763 0.033314973
5.6650391 3856.9497 0.033356547
5.6748047 3852.6865 0.033327341
5.6845703 3856.8279 0.033362508
5.6943359 3856.2661 0.033393204
5.7041016 3865.3376 0.033473372
5.7138672 3866.1492 0.033534169
5.7236328 3873.5725 0.033565909
5.7333984 3888.8748 0.033630282
5.7431641 3897.405  0.03376618
5.7529297 3894.0583 0.033768713
5.7626953 3896.155  0.033823848
5.7724609 3899.5769 0.033862889
5.7822266 3914.9036 0.033944398
5.7919922 3921.0793 0.034054965
5.8017578 3922.3228 0.034076422
5.8115234 3920.3479 0.034115911
5.8212891 3928.7483 0.034212172
5.8310547 3932.3994 0.034259707
5.8408203 3934.5918 0.034296066
5.8505859 3944.8955 0.034378469
5.8603516 3949.0698 0.034448504
5.8701172 3955.7241 0.03451407
5.8798828 3954.042  0.034501553
5.8896484 3961.5115 0.034574568
5.8994141 3968.8035 0.034673363
5.9091797 3975.187  0.034724623
5.9189453 3982.7961 0.034832954
5.9287109 3985.6814 0.034828335
5.9384766 3990.8    0.034938753
5.9482422 3988.0447 0.034933537
5.9580078 3992.8767 0.034973025
5.9677734 3997.9792 0.035055727
5.9775391 4008.2102 0.035146326
5.9873047 4011.3489 0.035212636
